time,DEVICE VOLTAGE B2|XI2,DEVICE VOLTAGE B2|XI4,DEVICE VOLTAGE B2|XI6,DEVICE VOLTAGE B1|XI10
0.0000000000000000e+00,0.0000000000000000e+00,0.0000000000000000e+00,0.0000000000000000e+00,0.0000000000000000e+00
2.0000000000000001e-13,8.1855343523083580e-07,8.2660926630136522e-07,8.2858916863197010e-07,7.6199101860507195e-07
4.0000000000000001e-13,4.0958328188922629e-06,4.1347467618972206e-06,4.1153296685554036e-06,3.8037470639583524e-06
6.0000000000000007e-13,1.0448919721127144e-05,1.0543857233017203e-05,1.0417531422984311e-05,9.6712604733937214e-06
8.0000000000000002e-13,1.9224262126948020e-05,1.9390181745942432e-05,1.9040955529875609e-05,1.7717771082984457e-05
9.9999999999999998e-13,2.9513393082198922e-05,2.9753962644303075e-05,2.9094717995146224e-05,2.7065029542442036e-05
1.2000000000000001e-12,4.0461431378029026e-05,4.0770438314154636e-05,3.9767514847535488e-05,3.6898660826900238e-05
1.4000000000000001e-12,5.1362166809076935e-05,5.1725522488634447e-05,5.0399407955228684e-05,4.6560984117240927e-05
1.6000000000000000e-12,6.1680031726762635e-05,6.2077918442308421e-05,6.0492711747209845e-05,5.5571708291365304e-05
1.8000000000000000e-12,7.1045167450591216e-05,7.1454183393165655e-05,6.9703110555726689e-05,6.3620055470390248e-05
2.0000000000000000e-12,7.9237463135541921e-05,7.9632677874711522e-05,7.7823480468662296e-05,7.0544275702232956e-05
2.1999999999999999e-12,8.6165566475218037e-05,8.6522401990212205e-05,8.4764625838509858e-05,7.6305505421328022e-05
2.4000000000000003e-12,9.1843580300114434e-05,9.2139426957679979e-05,9.0534672341074997e-05,8.0959733522259950e-05
2.6000000000000002e-12,9.6367080219229704e-05,9.6582559653852657e-05,9.5218136008603585e-05,8.4630327074609348e-05
2.8000000000000002e-12,9.9889753717403206e-05,1.0000955796404226e-04,9.8955519030260899e-05,8.7482870069736988e-05
3.0000000000000001e-12,1.0260182566731360e-04,1.0261509349921265e-04,1.0192426591906481e-04,8.9703553756208035e-05
3.2000000000000001e-12,1.0471127731333116e-04,1.0461150846446760e-04,1.0432188695160261e-04,9.1481883378379385e-05
3.4000000000000001e-12,1.0642861297994963e-04,1.0621316030261707e-04,1.0635193666587283e-04,9.2998008136224502e-05
3.6000000000000000e-12,1.0795559376854409e-04,1.0762480465752141e-04,1.0821331909159317e-04,9.4414564522380171e-05
3.8000000000000000e-12,1.0947799661782868e-04,1.0903409328090659e-04,1.1009313188340551e-04,9.5872587033017282e-05
3.9999999999999999e-12,1.1116213558848734e-04,1.1060792735755527e-04,1.1216300206857742e-04,9.7490814348271383e-05
4.1999999999999999e-12,1.1315464997552859e-04,1.1249216094806791e-04,1.1457864709782343e-04,9.9367613300173178e-05
4.3999999999999998e-12,1.1558494430894042e-04,1.1481401884998885e-04,1.1748225788887898e-04,1.0158474714950816e-04
4.5999999999999998e-12,1.1856965634082453e-04,1.1768657642231106e-04,1.2100725654300743e-04,1.0421230493038506e-04
4.8000000000000005e-12,1.2221861103333173e-04,1.2121472567072313e-04,1.2528502430541168e-04,1.0731425533035916e-04
5.0000000000000005e-12,1.2664186412586514e-04,1.2550219402095625e-04,1.3045331544517643e-04,1.1095426365448046e-04
5.2000000000000005e-12,1.3113906824799296e-04,1.2983275295881452e-04,1.3583767244521120e-04,1.1443960076206166e-04
5.4000000000000004e-12,1.3416700439234142e-04,1.3263866737898622e-04,1.3995178248472548e-04,1.1630483761315463e-04
5.6000000000000004e-12,1.3512324641806733e-04,1.3330291289295846e-04,1.4231279204750206e-04,1.1599317347577892e-04
5.8000000000000003e-12,1.3458136043917578e-04,1.3239461904574111e-04,1.4361345335410356e-04,1.1406840313002405e-04
6.0000000000000003e-12,1.3329978547256267e-04,1.3066677423042902e-04,1.4469593042592659e-04,1.1127332973579991e-04
6.2000000000000002e-12,1.3194182615159654e-04,1.2877394072554642e-04,1.4630676326129555e-04,1.0825768329952904e-04
6.4000000000000002e-12,1.3101942786872937e-04,1.2721555823037137e-04,1.4906758687266566e-04,1.0551642430234841e-04
6.6000000000000001e-12,1.3090790100310235e-04,1.2635039822821422e-04,1.5350630930751125e-04,1.0339773033944470e-04
6.8000000000000001e-12,1.3188007931323802e-04,1.2643027007479393e-04,1.6010341236836245e-04,1.0213252133470496e-04
7.0000000000000001e-12,1.3414224050573980e-04,1.2763519875661562e-04,1.6933973485320646e-04,1.0186802587255016e-04
7.2000000000000000e-12,1.3786601884608065e-04,1.3010427065514107e-04,1.8174169071951619e-04,1.0269886312024880e-04
7.4000000000000000e-12,1.4321497605572709e-04,1.3396081731651844e-04,1.9792251336576253e-04,1.0469350816313234e-04
7.5999999999999999e-12,1.5036615435556425e-04,1.3933230756774592e-04,2.1861767257013546e-04,1.0791595325508137e-04
7.7999999999999999e-12,1.5952739893336986e-04,1.4636585707010819e-04,2.4470928746918639e-04,1.1244326496206185e-04
7.9999999999999998e-12,1.7095105989358859e-04,1.5524023348075921e-04,2.7722663982878652e-04,1.1838010218238095e-04
8.1999999999999998e-12,1.8494401998443602e-04,1.6617485134434384e-04,3.1729529507602128e-04,1.2587134239687569e-04
8.3999999999999998e-12,2.0187278220004280e-04,1.7943555153914056e-04,3.6598385208510713e-04,1.3511387492443481e-04
8.5999999999999997e-12,2.2216035913038461e-04,1.9533586257251668e-04,4.2396739478077662e-04,1.4636839104782841e-04
8.7999999999999997e-12,2.4626855946897349e-04,2.1423075958296636e-04,4.9090668884954744e-04,1.5997158518107530e-04
8.9999999999999996e-12,2.7465456362199732e-04,2.3649741239660968e-04,5.6448073354190172e-04,1.7634843250459434e-04
9.1999999999999996e-12,3.0768439332021029e-04,2.6249382411968909e-04,6.3920913947449994e-04,1.9602282933420514e-04
9.3999999999999995e-12,3.4547945238255648e-04,2.9248175417312828e-04,7.0567525603286918e-04,2.1962234187428349e-04
9.6000000000000011e-12,3.8767099362846256e-04,3.2649622116719888e-04,7.5136863476428820e-04,2.4786824771155027e-04
9.8000000000000011e-12,4.3305375499640115e-04,3.6414427566022729e-04,7.6424153438731937e-04,2.8153428117045585e-04
1.0000000000000001e-11,4.7918561871237948e-04,4.0432961227735445e-04,7.3811554730072082e-04,3.2134540796933448e-04
1.0200000000000001e-11,5.2209362544172267e-04,4.4494126827102223e-04,6.7638459988181743e-04,3.6777225489346201e-04
1.0400000000000001e-11,5.5639061501481623e-04,4.8262543007023217e-04,5.9079715605287115e-04,4.2066465628678225e-04
1.0600000000000001e-11,5.7614354748550364e-04,5.1286027596406710e-04,4.9622338607228824e-04,4.7868196884411106e-04
1.0800000000000001e-11,5.7654427694215867e-04,5.3058641204299737e-04,4.0536565466448720e-04,5.3856658024318107e-04
1.1000000000000001e-11,5.5579351750704173e-04,5.3146530565154949e-04,3.2619025971456747e-04,5.9452894576152973e-04
1.1200000000000001e-11,5.1611682340084344e-04,5.1340589949231319e-04,2.6203759349020925e-04,6.3833831310028183e-04
1.1400000000000001e-11,4.6316618010843304e-04,4.7759746618225709e-04,2.1301045118952121e-04,6.6083759343387425e-04
1.1600000000000001e-11,4.0411890068220202e-04,4.2838503424632825e-04,1.7746972585437994e-04,6.5497020702484762e-04
1.1800000000000001e-11,3.4557705569049845e-04,3.7199622558792582e-04,1.5313305106908729e-04,6.1899253243223888e-04
1.2000000000000001e-11,2.9222961220237676e-04,3.1480659176179153e-04,1.3772117614098699e-04,5.5769311327261595e-04
1.2200000000000001e-11,2.4653283285470295e-04,2.6194003722852127e-04,1.2926707543248528e-04,4.8061221150940108e-04
1.2400000000000000e-11,2.0910413525071253e-04,2.1659942257778433e-04,1.2621997506709456e-04,3.9853028779841072e-04
1.2600000000000000e-11,1.7938464325233913e-04,1.8006998774517275e-04,1.2744276571371668e-04,3.2042022039414523e-04
1.2800000000000000e-11,1.5625602661445344e-04,1.5212681533345428e-04,1.3216364677900262e-04,2.5206050654798934e-04
1.3000000000000000e-11,1.3847832504960549e-04,1.3158487397567714e-04,1.3991507646899840e-04,1.9612800753393992e-04
1.3200000000000000e-11,1.2493857507693892e-04,1.1682018497206149e-04,1.5047566740073663e-04,1.5301139222126007e-04
1.3400000000000000e-11,1.1475399789368556e-04,1.0617588214943155e-04,1.6382056460284046e-04,1.2172311429724354e-04
1.3600000000000000e-11,1.0728340141175039e-04,9.8225545805531158e-05,1.8008005924488975e-04,1.0061947171841297e-04
1.3800000000000000e-11,1.0209114271539573e-04,9.1902587447374980e-05,1.9950249451210789e-04,8.7873539487461286e-05
1.4000000000000000e-11,9.8894124682093499e-05,8.6524367815907940e-05,2.2241437813514539e-04,8.1746840972810202e-05
1.4200000000000000e-11,9.7510076930525420e-05,8.1746643520130724e-05,2.4916702126624393e-04,8.0725569880213478e-05
1.4400000000000000e-11,9.7816412050443719e-05,7.7481599986901889e-05,2.8005457004566460e-04,8.3575412826734804e-05
1.4600000000000000e-11,9.9722988033011098e-05,7.3805486498874486e-05,3.1518379250110773e-04,8.9351401009960405e-05
1.4800000000000000e-11,1.0315841527925543e-04,7.0873372872432038e-05,3.5427490820033120e-04,9.7384981852658545e-05
1.5000000000000000e-11,1.0806748009915071e-04,6.8850935056722284e-05,3.9638354949351801e-04,1.0726117250911495e-04
1.5200000000000000e-11,1.1441636153286011e-04,6.7867292700889452e-05,4.3957135803975560e-04,1.1879318524418804e-04
1.5400000000000000e-11,1.2220224964860007e-04,6.7988878385657708e-05,4.8063153247036476e-04,1.3199884962599221e-04
1.5600000000000000e-11,1.3146441813172960e-04,6.9211834355027409e-05,5.1508523021181053e-04,1.4708132559328524e-04
1.5800000000000000e-11,1.4229445726701581e-04,7.1469040437043325e-05,5.3772492365203436e-04,1.6441517521428677e-04
1.6000000000000000e-11,1.5484395149414034e-04,7.4647184928759757e-05,5.4383671756292609e-04,1.8453721030229698e-04
1.6200000000000000e-11,1.6932814014021015e-04,7.8609143405249920e-05,5.3080227389518597e-04,2.0813903291059239e-04
1.6400000000000000e-11,1.8602381528058179e-04,8.3217324246639209e-05,4.9930652877565513e-04,2.3605402374652753e-04
1.6600000000000000e-11,2.0525868935315720e-04,8.8354532382268737e-05,4.5337858237296034e-04,2.6922458448898405e-04
1.6800000000000000e-11,2.2738752815585652e-04,9.3940124602372147e-05,3.9915863918334405e-04,3.0862436345893988e-04
1.6999999999999999e-11,2.5274741130178993e-04,9.9940525369186762e-05,3.4307045245236448e-04,3.5509419470876362e-04
1.7199999999999999e-11,2.8158084608248876e-04,1.0637429529263909e-04,2.9029597600112534e-04,4.0903189254315849e-04
1.7399999999999999e-11,3.1391245483051804e-04,1.1331273092796684e-04,2.4405094205197503e-04,4.6986735539676644e-04
1.7599999999999999e-11,3.4936618031704866e-04,1.2087736424155249e-04,2.0562851230014715e-04,5.3529279295179443e-04
1.7799999999999999e-11,3.8692279063712179e-04,1.2923574822232286e-04,1.7489096337510080e-04,6.0037860090862108e-04
1.7999999999999999e-11,4.2465294349584268e-04,1.3859663205458106e-04,1.5087755659062030e-04,6.5705994270774312e-04
1.8199999999999999e-11,4.5952682045736392e-04,1.4920511784762607e-04,1.3231856829020643e-04,6.9489234566873909e-04
1.8399999999999999e-11,4.8748083148420445e-04,1.6133769268656715e-04,1.1797617584295192e-04,7.0383233169354594e-04
1.8599999999999999e-11,5.0394644556278970e-04,1.7529613469688233e-04,1.0681882471774003e-04,6.7840580506539194e-04
1.8799999999999999e-11,5.0490649434294468e-04,1.9139813372080107e-04,9.8073328766985106e-05,6.2074552186889762e-04
1.8999999999999999e-11,4.8820745920099217e-04,2.0996094232546002e-04,9.1204408387319760e-05,5.4006873208480390e-04
1.9200000000000002e-11,4.5452530714938064e-04,2.3127240479051876e-04,8.5861733875161863e-05,4.4891583006545895e-04
1.9400000000000002e-11,4.0741651044146244e-04,2.5554141521295259e-04,8.1821037411961700e-05,3.5886463840104787e-04
1.9600000000000002e-11,3.5238243094303922e-04,2.8281788961337937e-04,7.8933847909250690e-05,2.7801225688406638e-04
1.9800000000000002e-11,2.9544027172779424e-04,3.1287253947412462e-04,7.7091609782890954e-05,2.1056921343110940e-04
2.0000000000000002e-11,2.4185460877981864e-04,3.4503296475401761e-04,7.6204397244762778e-05,1.5768698657641223e-04
2.0200000000000002e-11,1.9540953479592143e-04,3.7799102454184690e-04,7.6191529799801933e-05,1.1859255025648645e-04
2.0400000000000002e-11,1.5822707346447565e-04,4.0963313729612804e-04,7.6980372581318213e-05,9.1537100101098337e-05
2.0600000000000002e-11,1.3093467225835687e-04,4.3699713108486996e-04,7.8509757006549314e-05,7.4432134630249381e-05
2.0800000000000002e-11,1.1297928502253548e-04,4.5649868896265787e-04,8.0735215996154589e-05,6.5217749302971364e-05
2.1000000000000002e-11,1.0297051469883784e-04,4.6453689553598536e-04,8.3634187356073234e-05,6.2049165448222087e-05
2.1200000000000002e-11,9.9012620960452945e-05,4.5842521650020106e-04,8.7210235204973635e-05,6.3374847874723644e-05
2.1400000000000002e-11,9.9016542223711692e-05,4.3734166800045340e-04,9.1496030608850137e-05,6.7955406997850836e-05
2.1600000000000002e-11,1.0097828638409911e-04,4.0283973743888052e-04,9.6555276342748123e-05,7.4852412691948467e-05
2.1800000000000002e-11,1.0319806714618492e-04,3.5860795804027460e-04,1.0248398069693225e-04,8.3403182520258592e-05
2.2000000000000002e-11,1.0441635565012487e-04,3.0956254505911171e-04,1.0941153245348336e-04,9.3190201957079783e-05
2.2200000000000002e-11,1.0385977392808377e-04,2.6069628445337604e-04,1.1750195024322841e-04,1.0401003060851246e-04
2.2400000000000001e-11,1.0120992536810177e-04,2.1613950090399115e-04,1.2695549856023809e-04,1.1584469602825602e-04
2.2600000000000001e-11,9.6521069849583358e-05,1.7866480287132016e-04,1.3801057217195564e-04,1.2883760592691831e-04
2.2800000000000001e-11,9.0114806595756628e-05,1.4961184336995689e-04,1.5094530415923365e-04,1.4327530421735459e-04
2.3000000000000001e-11,8.2474477977485469e-05,1.2907738731040956e-04,1.6607765556247219e-04,1.5957560387077995e-04
2.3200000000000001e-11,7.4153528159558792e-05,1.1621632974812931e-04,1.8376164207362011e-04,1.7828147838229802e-04
2.3400000000000001e-11,6.5704170610607598e-05,1.0956066301055878e-04,2.0437562991739320e-04,2.0005822626114285e-04
2.3600000000000001e-11,5.7627167287816123e-05,1.0732025661035813e-04,2.2829605388035575e-04,2.2568823922183463e-04
2.3800000000000001e-11,5.0340485169277287e-05,1.0765367564244190e-04,2.5584637949331861e-04,2.5605223338152065e-04
2.4000000000000001e-11,4.4163450895544911e-05,1.0889543685152514e-04,2.8720712184309403e-04,2.9207671581657886e-04
2.4200000000000001e-11,3.9312971743475108e-05,1.0971973543854901e-04,3.2227022835275022e-04,3.3461360391459980e-04
2.4400000000000001e-11,3.5908798339290755e-05,1.0922545099070370e-04,3.6042522717340394e-04,3.8420032084895170e-04
2.4600000000000001e-11,3.3985297777987131e-05,1.0694297054989465e-04,4.0028502976809604e-04,4.4063596826909071e-04
2.4800000000000001e-11,3.3507624277906506e-05,1.0277990621288121e-04,4.3940896927777926e-04,5.0232850170355415e-04
2.5000000000000001e-11,3.4390487981375490e-05,9.6931487027686095e-05,4.7416303560971726e-04,5.6547725907676264e-04
2.5200000000000001e-11,3.6517963980825464e-05,8.9780593822921280e-05,4.9993741690687826e-04,6.2342498508691452e-04
2.5400000000000001e-11,3.9763005374939906e-05,8.1805540639965990e-05,5.1192011832276317e-04,6.6689787691734783e-04
2.5600000000000001e-11,4.4005571126935461e-05,7.3505321146635403e-05,5.0638762241544206e-04,6.8594704116488054e-04
2.5800000000000001e-11,4.9148574353115209e-05,6.5345198198997421e-05,4.8206258323570881e-04,6.7353236836026050e-04
2.6000000000000001e-11,5.5131194338665458e-05,5.7721311052243003e-05,4.4083154524354620e-04,6.2897181901493376e-04
2.6200000000000001e-11,6.1939446415484078e-05,5.0941126816069675e-05,3.8736617708430337e-04,5.5874757575247712e-04
2.6400000000000001e-11,6.9614222279917686e-05,4.5216235102267490e-05,3.2783737842854326e-04,4.7393653005720678e-04
2.6600000000000001e-11,7.8257247311599632e-05,4.0664367122914800e-05,2.6839339879502263e-04,3.8614829586109745e-04
2.6800000000000001e-11,8.8035498223406534e-05,3.7318075492400611e-05,2.1402513852393113e-04,3.0444402952822005e-04
2.7000000000000000e-11,9.9184530790869473e-05,3.5137984531137855e-05,1.6804858397492030e-04,2.3423756360788301e-04
2.7200000000000000e-11,1.1201082683482032e-04,3.4028851221291465e-05,1.3208870034381055e-04,1.7769703327104856e-04
2.7400000000000000e-11,1.2689262225969888e-04,3.3856898297592035e-05,1.0633296636820247e-04,1.3474469755856422e-04
2.7600000000000000e-11,1.4427767549052175e-04,3.4467057392872993e-05,8.9875870135237669e-05,1.0403541027087362e-04
2.7800000000000000e-11,1.6467507700663688e-04,3.5698949706002638e-05,8.1071335836585426e-05,8.3675037512448471e-05
2.8000000000000000e-11,1.8863656529868978e-04,3.7400669219894962e-05,7.7870593442006376e-05,7.1667016862465908e-05
2.8200000000000000e-11,2.1672099965916027e-04,3.9439725458081018e-05,7.8135467908510138e-05,6.6155743555083938e-05
2.8400000000000000e-11,2.4943345778856673e-04,4.1710830104116269e-05,7.9905834047092744e-05,6.5540681242325937e-05
2.8600000000000000e-11,2.8712694056303118e-04,4.4140539522826000e-05,8.1593734974456394e-05,6.8516085016150159e-05
2.8800000000000000e-11,3.2984847409226218e-04,4.6689054762298625e-05,8.2086847977514094e-05,7.4071023689400596e-05
2.9000000000000000e-11,3.7710359914066660e-04,4.9349701120621207e-05,8.0763824011500281e-05,8.1469749731759005e-05
2.9200000000000000e-11,4.2751442436850116e-04,5.2146744555123737e-05,7.7441262733559470e-05,9.0223529054067868e-05
2.9400000000000003e-11,4.7838417527134799e-04,5.5132251835360325e-05,7.2279826643913359e-05,1.0006014626972965e-04
2.9600000000000000e-11,5.2529396793917643e-04,5.8382678098450374e-05,6.5675539363309939e-05,1.1089478864029792e-04
2.9800000000000003e-11,5.6204855758388889e-04,6.1995789562137397e-05,5.8155585216855629e-05,1.2280470624455005e-04
3.0000000000000000e-11,5.8142901921690244e-04,6.6088422512090440e-05,5.0289964319881270e-05,1.3600923178262814e-04
3.0200000000000003e-11,5.7700524954420931e-04,7.0795461216726231e-05,4.2623692746110321e-05,1.5085601545830396e-04
3.0400000000000000e-11,5.4552640880018799e-04,7.6270299759405327e-05,3.5629792364690930e-05,1.6781342465624081e-04
3.0600000000000003e-11,4.8861044285614054e-04,8.2686940053244842e-05,2.9680933739109009e-05,1.8746769630580701e-04
3.0800000000000000e-11,4.1257003144670875e-04,9.0243764162751777e-05,2.5036662864658513e-05,2.1052117233645221e-04
3.1000000000000003e-11,3.2643773154743911e-04,9.9168883628574902e-05,2.1843019017284964e-05,2.3778405517184366e-04
3.1200000000000000e-11,2.3941626669053990e-04,1.0972677307034839e-04,2.0141571479777968e-05,2.7014546272680090e-04
3.1400000000000003e-11,1.5900590995783747e-04,1.2222557400650601e-04,1.9885204489567413e-05,3.0849878535166742e-04
3.1599999999999999e-11,9.0251706234554033e-05,1.3702390342539946e-04,2.0958254144824954e-05,3.5358084281204377e-04
3.1800000000000003e-11,3.5843261346326018e-05,1.5453506624763715e-04,2.3198836073906058e-05,4.0566735590937241e-04
3.1999999999999999e-11,-3.4014816695227124e-06,1.7522504110133711e-04,2.6421434560151213e-05,4.6406335720408480e-04
3.2200000000000003e-11,-2.8002890459773257e-05,1.9959822809340316e-04,3.0438099749533065e-05,5.2637488187224984e-04
3.2399999999999999e-11,-3.9376128296353966e-05,2.2816146294361687e-04,3.5076950780726761e-05,5.8771540285144073e-04
3.2600000000000002e-11,-3.9492330280310575e-05,2.6135211497762010e-04,4.0197109963280230e-05,6.4033113315089282e-04
3.2799999999999999e-11,-3.0615047338138771e-05,2.9941067878373740e-04,4.5699666041268603e-05,6.7445857595171185e-04
3.3000000000000002e-11,-1.5085251403611574e-05,3.4217438984214798e-04,5.1534731539192353e-05,6.8099512609272089e-04
3.3199999999999999e-11,4.8543850163103625e-06,3.8877281843025506e-04,5.7705063105630419e-05,6.5526037987388860e-04
3.3400000000000002e-11,2.7191604984151173e-05,4.3723464188923376e-04,6.4267006735371958e-05,5.9956952953851253e-04
3.3599999999999999e-11,5.0224829854503676e-05,4.8409127403125886e-04,7.1329681632737200e-05,5.2259962311325197e-04
3.3800000000000002e-11,7.2587944572448051e-05,5.2420007804528763e-04,7.9053315520133028e-05,4.3595980358042874e-04
3.3999999999999999e-11,9.3225987971556673e-05,5.5114703912755383e-04,8.7647491207308508e-05,3.5035707650209582e-04
3.4200000000000002e-11,1.1134005826359116e-04,5.5853320031385941e-04,9.7369764663672722e-05,2.7333159151408270e-04
3.4399999999999999e-11,1.2632859518591619e-04,5.4198770443092392e-04,1.0852467454156645e-04,2.0886360269361853e-04
